-1.3878e-17,6.9389e-18,-0,1.3878e-17,-6.9389e-18,-1.3878e-17,-6.9389e-18,-6.9389e-18,6.9389e-18,2.0817e-17,2.7756e-17,-0,2.0817e-17,2.0817e-17,6.9389e-18,2.0817e-17,2.0817e-17,2.0817e-17,2.0817e-17,6.9389e-18,1.0408e-17,1.0408e-17,-0,1.3878e-17,1.0408e-17,1.0408e-17,1.7347e-17,1.7347e-17,1.2143e-17,8.6736e-18,1.648e-17,-3.4694e-18,1.7347e-18,-1.7347e-18,-0,-3.4694e-18,-1.7347e-18,-6.9389e-18,-8.6736e-18,1.7347e-18,-1.0408e-17,-1.5613e-17,-5.2042e-18,-1.7347e-18,-1.9082e-17,-1.3878e-17,-1.0408e-17,-1.3878e-17,-8.6736e-18,-1.2143e-17,-1.9082e-17,-5.2042e-18,-5.2042e-18,-1.0408e-17,-6.9389e-18,-1.2143e-17,-5.2042e-18,-1.3878e-17,-1.9082e-17,-1.7347e-17,-1.2143e-17,-1.1276e-17,-2.0817e-17,-5.2042e-18,-8.6736e-19,-1.5613e-17,-6.9389e-18,-1.0408e-17,-3.4694e-18,-3.4694e-18,-1.0408e-17,-3.4694e-18,-0,-0,-3.1225e-17,-1.7347e-17,1.0408e-17,1.7347e-18,-1.2143e-17,-6.9389e-18,-1.7347e-18,-6.9389e-18,-0,-0,-8.6736e-18,-8.6736e-18,-8.6736e-18,3.4694e-18,-0,4.3368e-18,5.2042e-18,4.3368e-18,-3.0358e-18,1.0842e-17,5.8547e-18,1.1709e-17,1.8215e-17,6.0715e-18,3.4694e-18,6.9389e-18,1.0408e-17,6.9389e-18,1.0408e-17,1.9082e-17,8.6736e-18,1.2143e-17,1.5613e-17,2.0817e-17,3.4694e-18,1.9082e-17,2.0817e-17,1.9082e-17,8.6736e-18,2.0817e-17,1.4745e-17,1.648e-17,6.5052e-18,1.648e-17,1.5179e-17,1.0249e-17,1.03e-17,1.4637e-17,1.1276e-17,6.0715e-18,8.6736e-18,-0,-3.4694e-18,-3.4694e-18,-1.0408e-17,6.9389e-18,-1.7347e-18,4.3368e-18,-4.3368e-18,4.7705e-18,-6.7221e-18,-2.1684e-17,-1.1818e-17,-1.7781e-17,2.331e-18,-8.4568e-18,2.5208e-18,-1.0896e-17,-2.6292e-18,-1.3796e-17,-8.1586e-18,-1.7672e-17,-1.0842e-18,-1.7239e-17,8.6736e-19,-7.8063e-18,-3.4694e-18,-7.8063e-18,-5.6379e-18,-1.3444e-17,-4.3368e-18,8.6736e-19,1.0408e-17,3.4694e-18,5.2042e-18,-0,2.0817e-17,1.0408e-17,1.1276e-17,7.8063e-18,1.2143e-17,2.6021e-18,6.5052e-18,1.3878e-17,3.9031e-18,-5.6379e-18,5.2042e-18,-5.6379e-18,3.9031e-18,1.2143e-17,-5.6379e-18,6.5052e-18,5.2042e-18,7.3726e-18,-6.5052e-18,9.541e-18,2.4937e-18,9.3241e-18,-6.1257e-18,3.4694e-18,-6.2884e-18,2.0058e-18,-1.1276e-17,-4.5536e-18,-1.0842e-17,-3.4694e-18,-1.1276e-17,-6.5052e-18,-6.9389e-18,-1.3878e-17,-1.3878e-17,-1.3878e-17,-2.6021e-17,-1.2577e-17,-6.7221e-18,-1.0842e-17,-1.3553e-17,6.0715e-18,-1.5016e-17,4.0115e-18,-2.0627e-17,-1.0896e-17,-2.6292e-18,-9.6223e-18,-1.461e-17,-6.18e-18,-6.5052e-19,-1.2035e-17,-1.4745e-17,-1.5613e-17,-6.9389e-18,-1.4745e-17,-5.6379e-18,-6.5052e-18,-2.6021e-18,-6.0715e-18,-6.9389e-18,-6.9389e-18,-5.2042e-18,-6.9389e-18,-0,1.0408e-17,3.4694e-18,-0,1.7347e-17,-0,6.9389e-18,-8.6736e-18,-5.2042e-18,-1.2143e-17,8.6736e-18,-0,1.7347e-17,1.7347e-18,1.0408e-17,8.6736e-18,2.2551e-17,1.3878e-17,1.648e-17,1.9949e-17,1.9516e-17,1.5613e-17,1.6046e-17,1.7615e-17,1.5938e-17,1.1384e-17,1.9949e-17,1.648e-17,2.2551e-17,1.3878e-17,1.7347e-17,1.0408e-17,2.4286e-17,1.3878e-17,1.3878e-17,3.4694e-18,-3.4694e-18,1.0408e-17,3.4694e-18,1.0408e-17,6.9389e-18,1.3878e-17,-1.0408e-17,-3.4694e-18,-1.3878e-17,-1.2143e-17,-1.2143e-17,-2.0817e-17,-2.6021e-17,-1.3878e-17,-2.0817e-17,-2.7756e-17,-2.6021e-17,-2.2551e-17,-2.2551e-17,-2.7756e-17,-1.7347e-17,-1.9949e-17,-2.2551e-17,-2.8623e-17,-2.949e-17,-2.472e-17,-3.5996e-17,-3.0358e-17,-2.5153e-17,-3.0358e-17,-3.1225e-17,-2.0817e-17,-1.3878e-17,-2.4286e-17,-2.0817e-17,-2.0817e-17,-6.9389e-18,-6.9389e-18,-6.9389e-18,-0,-0,-0,-0,-3.4694e-18,3.4694e-18,3.4694e-18,3.4694e-18,6.9389e-18,3.4694e-18,6.9389e-18,1.0408e-17,1.7347e-17,1.3878e-17,1.3878e-17,1.0408e-17,2.0817e-17,1.0408e-17,1.9082e-17,1.7347e-17,1.5613e-17,3.4694e-18,1.7347e-17,-0,1.3878e-17,-0,1.3878e-17,1.3878e-17,1.3878e-17,-1.3878e-17,-0,-0,-0,-0,-0,1.3878e-17,-0,-0,-0,-1.3878e-17,-0,6.9389e-18,6.9389e-18,-0,-0,-0,-0,3.4694e-18,3.4694e-18,-3.4694e-18,-0,-2.6021e-18,1.0408e-17,-3.4694e-18,1.0408e-17,2.7756e-17,1.3878e-17,-0,-0,6.9389e-18,6.9389e-18,2.0817e-17,1.3878e-17,1.3878e-17,1.3878e-17,-0,1.3878e-17,-6.9389e-18,1.3878e-17,-0,6.9389e-18,1.0408e-17,3.4694e-18,3.4694e-18,-0,4.3368e-19,2.0058e-18,-1.7347e-18,-1.7347e-18,-6.9389e-18,-1.0408e-17,-6.9389e-18,-1.3878e-17,-1.3878e-17,-0,-2.7756e-17,-0,-2.0817e-17,-2.4286e-17,-3.4694e-18,-1.3878e-17,-1.2143e-17,-1.0408e-17,-8.6736e-18,-4.3368e-18,-1.7781e-17,-1.5613e-17,-5.7463e-18,-1.1493e-17,-9.6494e-18,-8.782e-18,7.3726e-18,-7.9147e-18,-9.9747e-18,-2.0817e-17,-1.7347e-18,-6.9389e-18,-1.2143e-17,-3.4694e-18,1.7347e-18,3.4694e-18,6.9389e-18,6.9389e-18,6.9389e-18,-0,6.9389e-18,-0,2.7756e-17,1.3878e-17,-1.7529e-05,3.036e-05,0.00014367,1.2832e-05,-5.2586e-05,-0.00036214,-0.00091584,-0.0005584,-0.00013553,4.3192e-05,-2.2225e-05,0.0008235,0.0014251,0.0029378,0.0053617,0.0043851,0.003474,0.0023187,0.00091928,0.000431,-0.00030142,-0.0001227,0.00096717,-0.0013434,-0.0038981,-0.0055417,-0.0062741,-0.010407,-0.013629,-0.020251,-0.030273,-0.027605,-0.024872,-0.022383,-0.020138,-0.016981,-0.014069,-0.010246,-0.0055113,-0.0041773,-0.0030874,-0.0010864,0.0018257,0.0013374,0.0017603,-0.0012173,-0.0075953,-0.0012827,0.0047858,0.011765,0.019656,0.024146,0.029548,0.031549,0.030149,0.041441,0.053643,0.062445,0.067846,0.085938,0.10063,0.12801,0.16809,0.1608,0.15342,0.14637,0.13964,0.1317,0.12409,0.11528,0.10526,0.099731,0.094526,0.088117,0.080506,0.077384,0.07306,0.073226,0.077882,0.06578,0.054001,0.041018,0.026832,0.017137,0.0062381,-0.00017025,-0.0020883,-0.020764,-0.040644,-0.056033,-0.066931,-0.094588,-0.11775,-0.15768,-0.21436,-0.2085,-0.2026,-0.19686,-0.19127,-0.1851,-0.17908,-0.17248,-0.1653,-0.16029,-0.15544,-0.15001,-0.144,-0.14016,-0.13574,-0.1335,-0.13344,-0.12524,-0.1172,-0.10858,-0.099373,-0.092346,-0.084734,-0.079303,-0.07605,-0.064663,-0.052692,-0.042901,-0.03529,-0.019543,-0.0059765,0.015725,0.045562,0.045038,0.044516,0.043989,0.043458,0.042944,0.042425,0.041924,0.041441,0.040892,0.040338,0.039802,0.039283,0.038699,0.038133,0.037501,0.036803,0.03635,0.035892,0.035452,0.035029,0.034541,0.03407,0.033534,0.032932,0.032575,0.032235,0.031829,0.031359,0.031132,0.03084,0.030792,0.030988,0.030273,0.029554,0.028852,0.028167,0.027417,0.026685,0.025887,0.025024,0.024405,0.023803,0.023136,0.022404,0.021915,0.021362,0.021052,0.020987,0.02001,0.019051,0.018027,0.016937,0.016091,0.01518,0.014513,0.01409,0.012756,0.011357,0.010201,0.0092902,0.0074679,0.0058897,0.0034004,-2.6021e-18,1.1276e-17,1.0408e-17,1.3878e-17,3.4694e-18,1.3878e-17,6.9389e-18,-8.6736e-18,1.2143e-17,8.6736e-18,1.2143e-17,-3.4694e-18,-0,8.6736e-18,1.0408e-17,8.6736e-18,1.5613e-17,6.9389e-18,1.301e-17,8.6736e-19,3.0358e-18,-1.7347e-18,8.4568e-18,-3.6287e-18,1.03e-17,6.18e-18,6.0715e-18,-6.0715e-18,1.7347e-18,-1.3878e-17,3.4694e-18,-3.4694e-18,1.0408e-17,-2.0817e-17,-5.2042e-18,-8.6736e-19,1.1276e-17,2.1684e-18,-2.1684e-19,1.1276e-17,8.3484e-18,3.9031e-18,-4.0658e-18,-1.9516e-18,-2.5208e-18,-2.9816e-18,-4.3097e-18,-5.2855e-18,-3.9844e-18,-1.4095e-18,-1.7998e-17,-1.8431e-18,-6.9389e-18,-6.0715e-18,-1.3878e-17,-7.8063e-18,-5.6379e-18,-3.9031e-18,-1.648e-17,-9.541e-18,-6.9389e-18,-6.9389e-18,-1.5613e-17,-1.3878e-17,-2.0817e-17,-3.4694e-18,-9.541e-18,-1.648e-17,-2.0817e-17,-1.9949e-17,-1.5179e-17,-1.5613e-17,-1.7781e-17,-1.6914e-17,-8.6736e-18,-1.1709e-17,-2.1684e-18,-1.5613e-17,-4.7705e-18,-9.9747e-18,-4.3368e-18,-4.3368e-19,9.9747e-18,4.3368e-18,7.9147e-18,4.5536e-18,1.133e-17,1.2143e-17,-6.5052e-19,6.6678e-18,1.4745e-17,1.0625e-17,9.9747e-18,1.0408e-17,1.9949e-17,2.3852e-17,1.9082e-17,1.3878e-17,1.3878e-17,3.1225e-17,1.2143e-17,2.6455e-17,2.7539e-17,1.4311e-17,1.0083e-17,2.1684e-17,2.022e-17,1.3336e-17,-1.8974e-19,1.7835e-17,1.6507e-17,1.8296e-17,2.4666e-18,7.9147e-18,2.3852e-18,6.8305e-18,-5.2042e-18,1.2143e-17,-0,-4.3368e-18,4.7705e-18,-4.3368e-19,2.6021e-18,4.3368e-18,-3.4694e-18,3.4694e-18,1.7347e-18,-6.9389e-18,-0,-1.7347e-17,-1.7347e-17,-6.9389e-18,-3.4694e-18,-6.9389e-18,-3.1225e-17,-1.7347e-18,-8.6736e-18,-1.5613e-17,-8.6736e-18,-1.0408e-17,-6.9389e-18,-8.6736e-18,-1.3878e-17,-8.6736e-18,1.7347e-18,-0,8.6736e-19,-9.541e-18,2.1684e-18,-4.3368e-18,-3.6863e-18,1.5687e-18,-4.8789e-18,4.2284e-18,-6.0715e-18,-2.6021e-18,1.7347e-18,-0,-3.4694e-18,-3.4694e-18,3.4694e-18,-0,-1.3878e-17,-2.4286e-17,-1.7347e-17,-1.0408e-17,-1.7347e-17,-3.4694e-18,6.9389e-18,-6.9389e-18,-1.0408e-17,-1.0408e-17,-6.9389e-18,-1.2143e-17,-1.9082e-17,-1.3878e-17,-1.2143e-17,-2.0817e-17,-1.3878e-17,-6.9389e-18,-8.6736e-18,-1.2143e-17,-8.6736e-18,-1.3878e-17,-5.2042e-18,-6.0715e-18,-1.7347e-18,8.6736e-19,4.3368e-19,1.301e-18,1.5179e-18,6.0715e-18,-8.6736e-19,1.301e-17,6.9389e-18,1.3878e-17,1.7347e-18,1.3878e-17,8.6736e-18,-1.7347e-18,1.3878e-17,1.2143e-17,8.6736e-18,1.2143e-17,1.5613e-17,6.9389e-18,1.3878e-17,1.3878e-17,1.5613e-17,1.5613e-17,8.6736e-18,1.2143e-17,1.2143e-17,1.3878e-17,1.3878e-17,5.2042e-18,5.2042e-18,-0,-1.7347e-18,-1.3878e-17,-8.6736e-18,-1.4745e-17,-1.7347e-18,-8.6736e-18,-8.6736e-19,-1.7347e-17,-1.3878e-17,-1.3878e-17,-6.9389e-18,-4.1633e-17,-2.0817e-17,-3.4694e-17,-3.4694e-17,-2.0817e-17,-1.3878e-17,-2.7756e-17,-2.0817e-17,-3.4694e-17,-2.0817e-17,-2.0817e-17,-2.0817e-17,-3.4694e-17,-1.3878e-17,-2.0817e-17,-2.4286e-17,-3.1225e-17,-2.0817e-17,-1.3878e-17,-1.7347e-17,-1.0408e-17,-3.4694e-18,3.4694e-18,-8.6736e-18,-1.7347e-18,-1.1709e-17,-5.2042e-18,-1.9082e-17,8.6736e-18,-6.9389e-18,-0,-0,1.3878e-17,6.9389e-18,1.7347e-17,6.9389e-18,-0,1.7347e-17,2.4286e-17,1.3878e-17,1.3878e-17,1.0408e-17,6.9389e-18,1.0408e-17,1.0408e-17,1.0408e-17,1.0408e-17,1.9082e-17,1.7347e-17,9.3241e-18,1.5667e-17,1.9082e-17,1.5613e-17,6.9389e-18,1.2143e-17,2.7756e-17,2.0817e-17,2.7756e-17,6.9389e-18,2.7756e-17,-6.9389e-18,1.3878e-17,6.9389e-18,2.3419e-17,1.3878e-17,1.2143e-17,7.3726e-18,1.9516e-17,1.1493e-17,5.6379e-18,5.15e-18,1.9624e-17,1.1438e-17,1.6588e-17,1.0571e-17,2.2118e-17,1.6588e-17,8.4568e-18,1.2143e-17,8.6736e-18,5.2042e-18,9.541e-18,-1.2143e-17,-0,-3.4694e-18,3.4694e-18,6.9389e-18,-1.0408e-17,-3.4694e-18,-0,6.9389e-18,-6.9389e-18,1.3878e-17,-8.6736e-19,-8.6736e-19,-5.2042e-18,-4.3368e-18,-5.2042e-18,-8.2399e-18,-2.472e-17,-1.5179e-17,-4.7705e-18,-1.7347e-18,-1.9949e-17,-1.3444e-17,-9.9747e-18,-6.5052e-18,-1.9949e-17,-1.3444e-17,-9.541e-18,-9.1073e-18,-2.3852e-18,9.7578e-19,-1.7347e-18,6.1257e-18,-4.6079e-18,1.9516e-18,-6.2884e-18,-6.5052e-18,3.0358e-18,-0,-7.8063e-18,-3.4694e-18,-6.9389e-18,-3.4694e-18,-1.3878e-17,-1.7347e-18,-9.541e-18,-3.4694e-18,6.9389e-18,6.5052e-18,2.2551e-17,5.8547e-18,8.2399e-18,-7.4268e-18,4.6621e-18,5.3668e-18,-8.9989e-18,-3.7947e-19,1.0842e-17,5.5294e-18,1.0842e-18,3.4694e-18,-1.2143e-17,-8.6736e-18,-4.3368e-18,-5.2042e-18,6.9389e-18,-3.4694e-18,-0,-3.4694e-18,-3.4694e-18,-3.4694e-18,-0,6.9389e-18,-6.9389e-18,-1.3878e-17,6.9389e-18,-0,-0,-0,6.9389e-18,3.4694e-18,-6.9389e-18,-0,-1.7347e-17,3.4694e-18,-6.9389e-18,-0,-3.4694e-18,-6.9389e-18,-1.0408e-17,-1.0408e-17,-1.7347e-17,-1.0408e-17,-5.2042e-18,-1.7347e-18,1.9516e-18,-8.6194e-18,-1.3661e-17,-8.6736e-18,-1.3878e-17,-5.2042e-18,-1.3878e-17,-2.0817e-17,-1.3878e-17,-6.9389e-18
