54.189,72.173,77.584,120.58,95.784,85.129,107.45,92.868,60.222,55.057,18.494,74.534,74.171,52.11,73.195,47.943,37.465,24.386,35.758,19.905,9.6097,18.303,15.214,22.756,23.738,13.741,30.779,40.701,61.709,22.63,18.877,23.053,6.4844,30.169,-10.813,-2.8537,-11.688,-24.215,34.139,39.485,75.558,206.59,298.99,419.05,335.71,313.41,113.46,-107.31,-180.93,-201.28,-164.44,-54.702,28.77,15.153,1.9806,-9.9036,-16.58,26.212,-20.392,-0.90022,28.609,26.037,-18.844,-21.269,20.777,-2.0232,9.347,-9.2006,15.607,-2.3216,15.216,14.246,10.799,32.508,50.431,34.327,18.597,-8.3108,-22.56,22.151,34.644,46.689,38.302,25.898,38.825,59.437,91.453,79.294,78.217,36.576,67.822,36.855,44.169,56.452,66.671,67.985,79.765,64.47,90.542,48.864,51.019,64.768,10.219,17.761,49.643,10.081,16.879,11.921,55.988,70.478,77.076,74.162,80.243,105.21,74.538,76.865,49.44,68.809,53.402,68.308,94.931,97.47,92.024,75.063,87.725,55.743,24.969,40.96,32.636,69.993,23.758,57.718,52.646,52.984,71.016,50.694,34.138,20.202,31.201,52.096,23.401,34.141,8.0873,24.193,49.919,55.112,30.158,18.813,49.747,31.856,58.93,50.288,28.481,-14.847,11.611,-8.0682,-23.922,0.81999,-3.7941,11.004,34.36,-8.2513,-21.95,-20.586,-21.295,-18.579,-33.046,4.1369,-19.548,-41.255,-24.087,-14.23,24.053,-5.4083,4.6589,-8.0661,19.267,-6.5353,-6.7462,-13.22,22.36,25.262,-0.67394,10.485,-20.548,-7.6186,7.0899,-13.92,-3.464,7.7896,-11.759,-16.035,38.095,63.438,57.371,83.767,103.59,107.69,99.002,55.09,55.491,78.074,60.689,59.636,51.799,47.011,43.115,8.2818,3.3127,-6.3441,-4.4027,23.436,-9.3106,2.7522,-3.6223,11.264,16.176,-14.525,-5.107,18.457,8.3414,2.7016,15.78,15.356,43.951,23.236,44.367,62.989,27.856,35.309,9.9845,85.351,112.96,209.26,365.55,374.32,283.37,215.15,34.03,-157.19,-142.13,-180.44,-121.93,-36.325,1.002,-4.7836,-12.168,22.674,20.349,40.088,56.906,76.477,84.369,65.755,37.913,62.786,92.732,63.035,69.192,98.398,97.338,113.96,64.21,46.938,76.041,101.42,77.103,60.291,49.786,91.294,58.007,90.93,120.78,95.339,79.993,117.73,136.2,116.56,128.86,95.077,105.99,106.99,92.359,98.97,115.38,123.45,114.8,99.228,104.3,117.47,122.48,125.46,136.87,121.94,100.87,89.124,77.348,82.357,54.066,31.628,56.665,49.453,40.906,29.838,55.657,50.866,17.575,-12.595,5.5231,-1.9661,20.334,-14.056,17.282,-22.647,-11.774,-21.265,-40.873,-58.827,-62.084,-27.698,-60.79,-66.65,-57.307,-70.434,-79.889,-72.599,-82.855,-35.945,-16.352,-51.652,-13.092,-20.759,-28.018,-21.761,-36.541,-19.448,5.1615,-24.077,2.0333,15.031,-11.613,0.044267,-27.296,-25.876,-27.392,-47.683,-39.728,-52.71,-59.392,-14.851,-3.9501,-8.3817,13.951,21.474,-4.9473,-12.015,-18.308,-27.727,27.59,4.1053,49.749,27.83,38.072,74.951,76.009,88.638,75.456,78.909,91.937,82.859,39.528,10.316,45.039,15.964,-6.9159,-35.495,-19.17,-49.921,-52.023,-63.324,-58.832,-41.763,-43.35,-13.929,-41.983,-32.945,-15.488,-42.525,-41.95,-16.87,-14.427,-20.956,-23.097,-21.684,3.3947,-5.5887,-4.2339,12.527,-20.705,-18.147,62.858,229.86,377.76,493.03,394.24,334.73,137.44,-68.726,-131.61,-160.49,-137.21,-74.684,-32.479,-5.5066,-47.127,-41.044,-4.2059,-19.528,-19.296,-21.43,-22.684,6.8842,-9.9375,-6.0512,-30.621,8.0598,-16.07,-22.584,18.028,40.795,37.361,23.51,15.786,41.311,44.513,17.421,37.069,37.744,34.433,31.319,40.17,33.514,37.735,54.344,50.631,41.877,26.477,67.062,44.616,38.083,34.473,66.43,68.679,99.313,80.881,55.689,73.629,76.348,93.907,110,119.53,88.294,68.563,52.607,22.876,62.317,63.13,36.32,46.995,14.179,43.386,14.817,-2.1215,-4.7109,20.83,40.939,4.1892,28.942,25.923,1.715,30.478,-15.11,-30.944,-39.206,-23.294,-14.411,20.42,1.2851,-14.527,-26.883,-38.677,-30.866,-4.9975,-21.932,-36.299,-6.548,19.101,42.503,32.131,28.377,30.089,51.434,1.6908,5.7698,-9.8503,-2.5909,14.356,-16.199,-2.5884,-2.8638,5.7441,-1.6797,0.24133,14.799,14.382,33.183,26.215,57.163,70.278,97.337,66.612,37.534,42.556,81.806,81.528,74.179,80.038,65.629,67.476,32.732,14.559,-14.2,12.154,9.5349,24.617,-22.381,-10.057,-3.3612,-3.2527,-22.11,-18.092,14.384,-33.346,-23.233,-10.265,-14.313,12.102,-15.319,-25.548,-45.852,-28.13,7.8835,18.635,2.245,-18.717,-33.354,22.261,150.05,328.56,512.69,617.74,487.54,336.51,84.648,-119.79,-104.8,-122.4,-59.987,1.6636,38.6,53.642,61.016,39.952,58.299,74.623,33.742,65.907,43.749,68.274,31.241,56.583,26.29,21.865,1.5648,38.319,10.587,38.168,17.351,18.885,1.2021,-14.91,31.057,17.19,18.778,29.949,19.328,15.399,6.7806,14.004,28.063,19.68,56.125,59.274,37.387,36.53,61.987,51.796,48.68,38.814,73.91,101.61,113.23,94.646,101.08,131.63,128.59,145.05,117.46,131.47,83.139,76.935,107.28,60.685,96.644,55.548,70.789,56.602,23.627,18.305,25.986,36.819,34.379,-3.69,10.709,-17.96,3.75,18.965,0.59765,6.9163,31.457,41.662,56.334,32.457,20.664,18.582,28.012,23.184,14.276,-2.8805,19.154,33.78,48.49,44.07,7.9261,1.1732,31.243,26.953,43.716,58.258,46.155,61.082,27.946,52.431,27.88,42.292,19.908,17.766,35.255,45.993,34.136,50.035,79.334,51.544,60.772,45.738,63.023,79.355,67.803,71.174,87.069,112.84,82.668,102.47,121.17,80.982,56.752,73.644,36.382,48.905,18.308,4.3246,1.4172,17.008,4.3226,2.0393,-21.6,-15.851,-7.5569,-4.9111,-36.033,1.1965,-27.591,-40.805,-40.801,-26.158,7.3133,23.561,29.82,22.202,23.745,15.928,14.804,-1.2749,16.308,19.189,-1.9287,48.627,112.22,244.68,393.7,443.34,349.89,215.72,-12.852,-205.57,-204.87,-274.92,-207.03,-119.63,-60.786,-15.418,-37.104,-16.536,-29.471,-37.615,5.4878,2.7591,23.618,26.384,24.434,41.184,35.105,53.927,41.988,63.59,43.348,53.684,41.082,9.7137,6.225,50.907,48.47,70.372,70.664,77.665,56.031,28.897,34.463,45.722,92.749,66.857,35.624,41.259,38.067,52.563,73.369,91.652,73.166,90.802,83.533,55.396,79.834,80.371,85.178,85.163,82.281,67.567,48.524,77.564,76.846,61.578,89.982,56.537,81.794,63.872,76.771,65.3,44.095,15.239,13.846,27.656,-3.8496,13.72,7.5226,-13.071,-18.645,-13.754,-34.202,-39.621,-33.552,-52.104,-18.382,-33.142,-40.969,-50.176,-52.277,-33.886,-45.219,-32.057,-53.294,-25.729,-44.126,-56.223,-28.247,-38.352,-22.803,-39.273,-35.163,-16.854,-28.641,-16.658,-38.156,-20.28,-33.439,-41.76,-27.721,-2.3533,-21.769,17.43,37.53,21.279,30.494,17.043,52.108,66.966,59.825,56.638,74.759,72.993,40.943,49.45,11.438,40.247,53.735,37.068,65.06,21.409,-9.9191,-25.245,-12.517,-28.885,-19.54,-58.879,-23.673,-33.881,-45.894,-48.761,-59.358,-57.566,-29.714,-4.9064,-48.894,-34.839,-30.992,-65.678,-56.495,-57.031,-31.341,-58.201,-78.171,-56.17,-59.573,-50.687,-5.2728,-52.606,-23.126,32.019,101.11,250.85,400.16,330.11,284.03,140.25,-54.419,-238.07,-214.39,-214.47,-141.85,-51.822,-40.136,9.8849,-1.1789,10.244,30.566,40.72,3.3291,5.0118,47.584,42.021,48.371,58.446,58.284,40.917,21.877,29.25,20.341,2.9641,38.653,15.738,28.078,50.901,68.604,82.894,85.933,48.341,85.498,83.621,76.517,74.189,110.81,79.127,102.08,81.782,84.154,57.455,82.359,91.743,89.613,105.55,78.431,73.682,59.705,78.663,55.228,93.025,62.678,66.745,91.457,72.802,35.148,26.912,23.9,49.497,70.597,68.887,25.791,32.148,17.552,27.616,41.222,30.047,31.311,25.773,6.4124,5.8279,-12.664,-2.0993,0.018511,-26.217,-44.824,-54.22,-50.161,-50.925,-37.86,-65.613,-30.521,-48.469,-7.7854,21.432,4.3783,-16.215,-11.429,28.11,-1.3785,-25.53,-26.356,-26.28,-46.534,2.9032,-7.3862,3.7988,34.727,-1.9216,5.9314,44.099,70.027,83.029,73.49,58.008,78.809,68.58,64.794,53.653,89.266,100.86,89.925,91.098,96.331,84.177,85.285,60.44,39.299,59.385,64.982,31.275,15.439,6.5958,-12.814,20.789,-13.13,-7.0297,21.766,5.0158,-12.283,-20.39,-19.966,3.3158,-13.519,17.933,-3.35,0.1876,-24.984,-14.308,22.994,-7.7839,21.877,32.723,16.164,3.5881,41.295,69.749,178.96,314.84,445.94,377.4,307.76,101.46,-86.741,-157.31,-192.04,-192.51,-117.09,-86.799,-43.83,-26.658,-20.24,-25.37,-22.894,-40.466,-30.872,-28.378,10.653,-17.467,-20.816,-25.885,-28.516,-10.156,-21.518,-4.2144,12.015,4.9469,-21.274,-1.0096,-17.852,0.48826,-8.3043,-18.987,-33.104,-36.119,-32.475,-9.7423,-18.607,15.476,42.468,28.401,36.961,46.919,26.033,36.55,51.984,26.171,36.834,67.875,51.304,29.904,59.105,81.727,49.902,83.667,84.975,78.686,36.512,66.165,84.591,45.704,70.08,43.381,21.145,9.182,-7.6854,14.394,8.537,6.1839,-28.64,-6.8316,-16.894,-59.194,-74.67,-33.186,-60.356,-27.583,-48.36,-41.88,-23.426,-2.6572,3.7748,15.726,-15.862,-24.36,-37.969,-34.723,-31.364,-6.1878,-41.716,-51.799,-17.171,-49.671,-11.168,-12.705,-33.854,-6.2712,6.645,-19.017,2.931,-10.329,-15.576,21.817,24.252,62.962,67.592,50.397,60.699,47.728,23.712,30.989,27.387,54.498,15.292,51.439,60.704,42.119,16.681,21.082,34.027,-19.163,-7.1779,-39.788,-55.742,-37.612,-53.973,-48.168,-51.613,-47.352,-44.353,-12.962,-48.678,-21.476,-22.501,-45.828,-14.464,-8.6748,1.7422,13.408,3.5744,-24.006,-14.129,-49.44,-51.101,-30.235,91.725,259.48,406.44,581.73,435.6,307.02,124.12,-68.179,-136.89,-163.4,-120.45,-77.355,-23.405,-47.503,-61.608,-43.421,-13.294,-7.9576,-5.4308,-31.652,-30.02,-20.404,-17.699,-28.899,-0.21158,13.176,40.103,19.846,29.33,8.1409,-17.9,-20.444,-8.8937,-17.193,-33.882,-15.216,11.147,37.224,17.52,0.35104,27.325,2.5278,20.279,34.216,13.897,13.72,49.813,47.197,67.781,71.513,55.573,35.181,24.26,63.314,78.51,83.467,83.18,96.114,105.25,75.888,104.45,110.56,121.33,119.24,98.329,104,97.299,87.691,53.714,34.775,26.597,41.128,35.308,-8.0934,-31.111,-41.212,-6.3901,-27.114,1.6222,11.71,13.592,-23.111,-20.153,6.1289,1.7647,22.823,-17.42,-14.435,-31.205,0.89796,21.699,45.425,14.502,-10.056,-28.115,-32.301,-37.186,-48.339,-7.5893,9.1552,-3.9473,3.713,13.129,-21.093,-44.351,-11.726,-28.634,-40.332,-50.611,-31.117,-9.358,-1.1689,-11.838,-5.8926,-33.902,-9.5949,-31.237,-24.433,-8.3364,18.014,15.347,42.482,63.393,77.547,95.819,101.11,92.426,91.899,74.742,50.25,35.051,29.765,8.8337,-2.0429,-32.021,-16.221,10.254,-29.714,-53.675,-49.291,-17.456,-31.906,-49.723,-49.096,-16.657,-33.189,-9.7055,-39.342,-53.919,-39.149,-39.399,-56.809,-45.522,-34.916,-67.016,-54.648,-81.712,-80.87,-72.489,-47.221,-50.368,-22.277,81.346,262.97,416.69,586.79,489.7,397.03,150.88,-58.996,-137.45,-189.24,-145.6,-105.84,-65.298,-20.583,-1.2786,-0.99827,0.76855,-24.129,13.224,17.636,-5.554,7.0728,27.673,7.317,-16.81,-15.363,4.3643,44.605,7.2025,18.184,-14.618,-16.72,-9.2054,-37.551,-38.497,-7.9793,-7.7756,14.343,12.533,31.696,68.462,5.2252,47.081,69.595,49.296,40.259,64.14,51.671,30.366,33.796,49.561,49.529,35.24,50.647,33.447,35.507,83.442,62.999,56.072,54.123,89.131,64.542,91.756,110.49,95.254,65.241,25.904,60.424,47.826,19.942,8.5681,35.476,10.001,31.476,5.2912,23.591,10.956,-26.017,4.7894,7.0347,22.967,-6.966,30.235,28.276,-15.562,-23.617,-23.201,-3.6566,19.011,-5.9264,-2.4313,-18.061,8.1163,40.464,21.597,44.771,37.096,44.078,17.795,11.91,4.7609,-16.629,-31.452,-30.673,24.459,28.885,37.841,42.907,34.523,53.893,68.381,17.373,63.824,60.563,33.557,44.95,70.688,39.636,41.34,36.868,69.876,87.572,66.683,78.569,61.969,71.98,60.712,89.335,71.742,88.763,97.145,114.42,116.75,104.03,61.921,24.264,24.216,-2.2966,-18.889,4.5806,-40.107,-59.291,-27.285,-36.805,-26.472,-50.144,-8.3142,11.454,-4.3371,-13.631,-3.1565,-35.628,5.5734,-16.589,-11.507,-45.869,2.205,-6.6716,1.7993,-11.245,29.21,49.542,62.908,93.684,136.98,296.42,416.26,363.25,346.05,177.26,-47.214,-221.4,-179.48,-203.39,-128.9,-13.06,-6.6795,-3.4208,1.2583,29.325,48.353,44.722,25.324,36.819,25.613,47.009,69.598,33.635,81.511,95.996,99.244,97.223,100.17,76.484,82.57,67.209,49.389,89.727,59.196,77.665,94.204,60.189,58.261,86.211,79.191,78.243,72.665,92.427,106.07,134.14,92.709,135.74,113.07,119.86,143.28,130.81,91.875,146.91,138.37,149.79,146.79,146.15,119.87,125.2,140.31,136.57,147.83,172.17,175.98,149.38,161.38,159.01,138.75,112.56,119.94,116.57,67.419,42.522,71.592,57.576,63.017,52.869,80.887,61.022,29.285,45.722,36.739,28.103,44.474,32.903,6.6867,17.518,42.643,20.114,10.833,40.92,24.561,10.383,55.3,47.917,27.832,20.377,22.184,59.183,62.033,58.161,30.714,10.243,32.692,38.107,11.009,36.975,52.704,81.163,78.105,60.555,39.811,47.046,79.882,76.528,101.83,105.83,120.54,102.94,97.35,96.803,119.92,123.59,105.81,102.92,89.881,90.71,116.03,109.27,112.51,94.192,59.266,73.513,38.687,39.808,31.757,23.357,-5.7026,20.005,-3.5675,-0.59405,-28.041,-18.424,-28.096,-17.281,-10.811,-10.504,24.059,30.611,1.1915,6.8006,25.072,-8.4997,-18.988,-10.054,15.867,4.0338,-9.1224,13.07,19.001,-4.1246,37.805,69.868,115.27,292.67,446.08,393.33,329.17,147.51,-11.098,-132.92,-118.44,-130.01,-56.91,-31.138,4.0756,6.9656,-11.213,2.6771,-20.758,-1.2333,6.3428,37.699,21.906,30.177,38.32,64.786,37.664,10.752,7.6061,48.132,77.839,50.593,79.282,84.487,102.69,69.41,73.417,83.387,85.672,103.68,103.11,100.11,121.77,102.55,68.302,78.9,89.411,107.62,119.96,94.597,86.985,104.72,78.247,72.209,100.35,109.95,93.323,96.721,100.31,121.08,145.16,138.24,147.24,107.11,85.879,106.38,89.628,83.249,73.289,93.216,91.491,42.892,43.379,63.707,77.995,76.606,83.257,41.694,16.934,18.759,13.292,5.7565,-15.921,-19.724,3.6829,16.212,-12.165,-8.858,28.472,43.667,62.809,38.551,7.8114,41.341,29.507,7.7668,14.969,-5.1164,-1.7682,33.502,8.1941,-12.346,1.3771,-21.789,-9.7728,-2.5643,-17.764,33.525,43.223,60.371,78.24,49.79,88.562,127.45,103.96,75.064,88.041,115.6,136.17,90.34,87.144,93.793,111.75,93.926,107.7,49.274,9.3111,-6.1791,-27.662,-40.791,-41.069,-33.452,-16.745,1.7621,-27.01,4.5873,8.0069,2.1963,29.742,6.1069,15.715,6.1552,16.811,-14.276,23.515,7.1311,24.957,39.205,60.092,49.343,42.366,-9.5028,-28.281,36.72,145.71,323.24,468.24,535.82,420.37,259.37,59.761,-123.76,-113.67,-163.89,-140.53,-99.717,-28.639,-55.82,-72.867,-43.617,-44.605,-11.252,-33.523,-0.71412,-37.359,-6.098,-20.575,-6.5334,-0.78194,24.588,13.913,-4.061,-2.5378,2.7216,12.749,16.691,15.886,3.9409,15.658,36.301,34.958,48.43,73.676,76.263,51.493,83.577,66.807,83.885,95.624,100.08,65.218,86.488,84.146,100.89,84.653,113.98,90.071,112.41,113.05,113.85,115.7,127.52,132.61,143.99,101.02,102.64,128.72,91.5,105.07,95.691,72.322,43.514,52.229,50.375,56.074,11.097,30.458,36.102,22.724,48.42,14.034,7.343,17.783,-9.0103,16.147,32.028,-8.9823,21.303,47.451,28.196,42.331,21.664,-3.1322,37.629,41.464,3.1159,45.065,46.86,39.685,15.905,18.657,31.758,44.234,57.482,46.957,46.69,16.513,57.672,18.026,7.4053,11.579,4.5829,22.696,27.979,38.661,8.0303,-4.0476,35.96,53.627,53.02,14.897,-2.8846,-6.4608,22.517,33.477,12.431,16.456,45.438,20.274,24.891,63.524,62.523,59.274,48.995,41.032,35.615,35.863,59.208,75.176,50.723,75.558,102.26,64.276,31.041,17.677,-5.8276,13.222,23.928,-2.0598,-17.443,-3.7474,17.045,24.638,-10.789,12.472,42.536,36.498,11.746,19.154,1.6832,-10.481,-24.74,-37.187,-42.738,-46.856,-56.147,-3.7588,-20.333,-31.032,3.0773,-11.642,-41.079,-24.852,49.793,155.26,379.62,551.18,525.72,394.91,199.46,17.277,-127.57,-167.32,-188.89,-101.81,-70.264,-11.218,4.7535,20.344,-7.3573,-23.437,-25.628,-1.6978,-13.402,-21.327,-24.761,-32.408,6.1322,22.281,46.397,12.304,4.3079,40.286,55.605,18.419,60.008,75.211,77.724,82.754,70.921,73.472,75.21,99.33,124.14,119.65,127.86,135.38,115.95,103.55,85.808,103.44,68.372,99.471,117.3,118.25,85.108,57.763,90.227,79.185,116.32,122.97,136.81,147.48,116.15,151.31,123.01,121.06,121.41,99.185,121.01,96.076,95.927,89.759,67.205,98.174,72.815,68.441,41.344,18.534,25.599,71.064,9.9111,39.696,22.125,-12.134,8.8071,42.228,35.182,56.303,48.533,68.664,47.55,50.826,75.385,72.724,47.501,40.337,35.95,43.633,35.703,31.584,4.5522,17.696,25.272,50.091,43.077,22.102,24.402,22.001,20.488,33.901,7.6601,36.517,11.449,-1.4932,1.2489,20.838,16.361,22.826,26.071,-7.1493,-23.693,-28.152,-0.37628,38.202,43.976,20.444,-2.8547,29.959,3.5029,35.148,20.002,5.5687,-18.683,-9.8898,-11.324,-10.381,41.495,13.553,28.048,45.984,50.369,33.313,46.994,38.193,29.89,36.721,67.72,71.282,39.986,66.961,89.597,64.163,68.746,60.896,16.494,14.405,21.591,-8.3838,18.336,-9.6529,22.72,33.221,16.251,31.194,49.945,18.98,26.044,25.144,28.274,36.263,-11.364,20.933,19.197,17.219,3.1747,37.123,3.0942,32.116,25.544,17.98,55.332,114.06,138.37,279.63,441.14,362.18,349.36,204.31,-24.702,-210.92,-179.58,-183.86,-123.82,-6.5981,40.352,8.6161,55.491,10.841,57.748,38.233,51.44,55.104,68.335,42.375,71.815,72.588,46.33,39.067,57.513,88.892,117.65,100.5,115.96,112.51,118.4,97.194,90.621,65.825,55.927,86.388,59.706,77.075,102.72,123.52,97.698,86.564,67.093,109.37,106.06,105.11,107.03,127.75,144.54,116.01,95.814,98.514,96.646,101.32,110.05,132.59,77.841,120.34,119.86,74.614,101.35,100.2,128.16,67.285,84.728,89.625,82.74,55.187,77.909,67.783,30.009,10.401,37.579,35.949,57.147,83.849,44.498,37.128,38.137,42.801,-8.0901,27.598,21.316,17.394,10.623,-12.585,8.575,13.909,-4.9224,28.461,16.615,9.9483,3.802,29.027,57.258,28.599,56.946,44.39,32.982,44.51,49.216,49.067,31.222,24.198,45.507,68.886,63.951,32.871,51.331,55.494,42.509,26.702,41.532,52.51,64.409,85.968,75.935,59.112,83.224,64.805,57.341,101.4,98.39,80.27,90.991,83.255,72.241,99.48,72.82,95.434,74.391,90.105,99.168,74.656,67.111,35.685,15.159,27.11,14.217,14.677,-8.8118,-25.819,-14.305,-16.1,-9.2506,-37.127,-16.711,-27.052,-25.972,-24.938,-37.624,-1.1545,0.53642,0.34967,-16.309,13.161,15.752,30.083,7.1883,-2.6527,15.042,65.176,105.6,180.71,275.74,382.88,354.22,299.28,155.19,-46.442,-176.83,-163.53,-187.18,-127.46,-36.966,12.297,-3.7964,41.757,8.1347,15.951,0.6525,37.181,48.331,31.989,26.215,29.555,35.688,65.192,42.819,76.227,76.465,69.177,80.363,55.495,84.406,92.087,55.376,79.564,98.945,95.934,96.254,82.304,110.7,118.25,95.848,79.777,96.43,121.04,98.291,75.642,79.002,118.64,89.531,132.33,121,117.82,138.71,115.52,107.52,119.28,148.42,117.32,109.56,117.97,86.177,104.31,91.191,113.31,103.72,93.341,94.521,53.095,29.458,15.419,22.588,17.094,-6.7097,-18.794,-35.078,-30.088,-35.348,-29.475,-5.3709,-14.022,-42.848,-22.061,12.421,0.21417,-31.143,-7.851,-15.972,-19.096,-35.339,-47.556,-35.429,-0.69357,-14.146,16.123,38.251,52.567,35.422,-3.2438,31.683,-7.4762,22.044,7.1571,38.367,28.614,19.65,38.154,56.065,58.086,64.697,56.609,36.339,63.79,51.205,84.821,89.414,105.05,121.88,121.16,116.81,109.11,93.633,80.494,111.95,115.08,98.956,98.812,50.849,76.159,57.053,75.664,72.831,60.971,57.549,43.105,60.955,53.057,55.467,22.169,17.438,53.019,34.361,18.985,45.701,57.106,53.245,41.444,18.969,56.068,14.345,2.0036,50.763,64.096,32.186,45.244,57.255,35.617,88.822,250.27,450.94,567.63,489.69,433.44,195.14,-31.89
