-6.9389e-18,-2.7756e-17,-0,1.3878e-17,1.3878e-17,-0,-1.3878e-17,-6.9389e-18,-1.3878e-17,-2.0817e-17,-1.7347e-17,-3.4694e-18,6.9389e-18,-1.3878e-17,-1.2143e-17,-1.5613e-17,-1.3878e-17,-1.8215e-17,-4.3368e-18,-4.5536e-18,-1.5179e-18,-6.9389e-18,1.7347e-18,-8.6736e-18,-1.5613e-17,-1.3878e-17,-3.4694e-18,-0,-1.7347e-17,-1.0408e-17,-1.3878e-17,-3.4694e-18,-1.7347e-17,3.4694e-18,-3.4694e-18,-0,-1.3878e-17,6.9389e-18,6.9389e-18,1.0408e-17,1.7347e-17,1.3878e-17,-0,1.0408e-17,-1.7347e-17,6.9389e-18,6.9389e-18,1.0408e-17,3.4694e-18,6.9389e-18,-1.7347e-18,-0,-3.4694e-18,1.0408e-17,3.4694e-18,1.9082e-17,1.4745e-17,1.5613e-17,7.8063e-18,9.541e-18,6.5052e-18,1.648e-17,2.125e-17,1.7347e-18,1.2035e-17,8.511e-18,4.5808e-18,-1.4908e-19,1.0547e-17,-4.967e-18,-6.0715e-18,-1.7347e-18,-0,-5.2042e-18,-0,-6.9389e-18,1.2143e-17,-7.8063e-18,1.7347e-18,-8.6736e-19,1.7347e-18,8.6736e-19,6.9389e-18,-8.0231e-18,1.9516e-18,-1.1276e-17,2.1684e-19,-1.6046e-17,-1.1709e-17,-1.5613e-17,-1.4745e-17,-4.3368e-18,-8.6736e-18,-1.2143e-17,-0,-3.4694e-18,-8.6736e-18,-1.3878e-17,-1.9082e-17,-5.2042e-18,-1.2143e-17,-5.2042e-18,-8.6736e-18,-8.2399e-18,-1.0842e-17,-4.3368e-19,-6.9389e-18,3.9031e-18,-7.8063e-18,3.9031e-18,-1.7347e-18,4.3368e-19,-8.6736e-19,6.9389e-18,-6.0715e-18,1.7347e-17,-1.7347e-18,-1.7347e-18,1.7347e-18,1.3878e-17,5.2042e-18,3.4694e-18,6.9389e-18,-3.4694e-18,2.0817e-17,1.3878e-17,1.0408e-17,1.3878e-17,6.9389e-18,1.7347e-17,1.3878e-17,1.0408e-17,1.7347e-17,1.3878e-17,3.4694e-18,9.9747e-18,7.8063e-18,1.3878e-17,8.6736e-18,1.7347e-18,7.8063e-18,8.6736e-19,-2.6021e-18,-1.7347e-18,-4.3368e-18,-6.0715e-18,2.6021e-18,-0,-6.9389e-18,5.2042e-18,3.4694e-18,-0,1.7347e-18,-6.9389e-18,1.0408e-17,-0,-1.0408e-17,3.4694e-18,1.0408e-17,8.6736e-18,1.3878e-17,-1.7347e-17,-8.6736e-18,-5.2042e-18,-5.2042e-18,-3.4694e-18,1.1276e-17,1.301e-18,-1.0842e-18,1.5396e-17,8.37e-17,-1.8171e-16,-3.5562e-17,1.1195e-15,2.398e-15,6.9029e-15,7.3231e-15,2.7816e-15,-4.6866e-15,-7.1916e-14,-1.0881e-13,5.2816e-14,1.7959e-13,2.0238e-13,7.454e-14,-4.9758e-13,-1.229e-12,-1.4807e-12,-2.0992e-12,-4.6395e-12,-6.9183e-12,-7.612e-12,-7.4102e-12,-5.0805e-12,-1.0274e-12,-3.3983e-12,1.4445e-12,3.5072e-11,6.777e-11,1.0439e-10,1.1633e-10,3.6907e-11,-5.5524e-11,-1.229e-10,-1.7739e-10,-2.0154e-10,-1.9153e-10,-1.7422e-10,-8.5431e-11,1.6771e-10,4.7647e-10,8.7176e-10,1.2381e-09,1.3429e-09,1.4786e-09,1.6012e-09,1.9729e-09,3.2059e-09,4.5674e-09,5.7939e-09,6.8399e-09,7.2728e-09,7.4221e-09,7.5548e-09,7.2895e-09,6.4161e-09,5.2169e-09,2.6341e-09,5.3288e-10,2.1387e-09,3.0246e-09,3.3955e-09,-1.6363e-10,-1.6374e-08,-3.5289e-08,-5.0189e-08,-6.5841e-08,-8.5461e-08,-1.0121e-07,-1.1601e-07,-1.1756e-07,-8.1488e-08,-3.543e-08,1.0093e-08,5.5705e-08,8.9748e-08,1.199e-07,1.5002e-07,1.7432e-07,1.9009e-07,1.987e-07,1.9509e-07,1.8596e-07,1.8398e-07,1.6979e-07,1.4276e-07,8.8767e-08,-2.7561e-08,-1.6813e-07,-3.0693e-07,-4.6455e-07,-6.57e-07,-8.5143e-07,-1.0553e-06,-1.2276e-06,-1.279e-06,-1.3095e-06,-1.3843e-06,-1.4573e-06,-1.4996e-06,-1.5829e-06,-1.6802e-06,-1.9044e-06,-2.4817e-06,-3.1557e-06,-3.8148e-06,-4.4867e-06,-5.0996e-06,-5.6734e-06,-6.2488e-06,-6.7275e-06,-6.9764e-06,-7.1321e-06,-7.2195e-06,-7.2606e-06,-7.366e-06,-7.408e-06,-7.3399e-06,-7.1598e-06,-6.7669e-06,-6.2526e-06,-5.8195e-06,-5.182e-06,-3.9179e-06,-2.6318e-06,-1.2595e-06,-3.3738e-07,-1.1676e-06,-2.2537e-06,-2.6584e-06,-2.9748e-06,-3.482e-06,-3.2802e-06,-2.8096e-06,-4.0687e-07,7.0799e-06,1.6072e-05,2.5487e-05,3.496e-05,4.225e-05,4.9383e-05,5.6762e-05,6.4533e-05,7.4507e-05,8.4377e-05,9.207e-05,9.9224e-05,0.00010757,0.00011363,0.0001181,0.00011669,0.0001005,7.9414e-05,5.7542e-05,3.3952e-05,1.1717e-05,-1.0553e-05,-3.4276e-05,-5.6523e-05,-7.3779e-05,-8.9512e-05,-0.00010465,-0.0001191,-0.00013452,-0.00014909,-0.00016197,-0.00017336,-0.00018258,-0.00018999,-0.00019637,-0.00020039,-0.00020022,-0.00019818,-0.0001939,-0.00018943,-0.00018992,-0.0001892,-0.00018339,-0.00017473,-0.00016412,-0.00014795,-0.00012782,-9.7051e-05,-4.3127e-05,2.0014e-05,8.814e-05,0.00016012,0.00022758,0.00029819,0.00037357,0.00045428,0.00054699,0.00064335,0.00073648,0.00083145,0.00093292,0.0010307,0.0011276,0.0012092,0.0012471,0.0012731,0.0012974,0.0013223,0.0013672,0.0014147,0.0014612,0.0015059,0.0015343,0.0015649,0.0016142,0.0016692,0.0017159,0.0017822,0.0018622,0.0019909,0.0022403,0.0025301,0.002829,0.0031412,0.0034362,0.0037327,0.0040418,0.0043456,0.004631,0.0049084,0.0051738,0.0054343,0.0057076,0.0059667,0.0062099,0.006418,0.0065451,0.0066399,0.0067243,0.006789,0.0068427,0.0068854,0.0069083,0.0069323,0.0069907,0.0070458,0.007083,0.0071044,0.0070955,0.0070651,0.0070228,0.0069523,0.0068367,0.0066961,0.0065162,0.0063314,0.006208,0.0060594,0.0058883,0.0056325,0.0051291,0.0045654,0.0040635,0.0035418,0.0029531,0.0024276,0.0019092,0.0016206,0.0019913,0.0025337,0.0030896,0.0036261,0.0038654,0.0040445,0.0042214,0.0043828,0.0046943,0.0049344,0.0048751,0.0047077,0.0046601,0.0043012,0.003696,0.0023565,-0.00075731,-0.0044967,-0.0083415,-0.012472,-0.016649,-0.020873,-0.025323,-0.029527,-0.032753,-0.035779,-0.038958,-0.042116,-0.045349,-0.04871,-0.051992,-0.055661,-0.060493,-0.065562,-0.070623,-0.075493,-0.079468,-0.083207,-0.086793,-0.090364,-0.094672,-0.098766,-0.10186,-0.10453,-0.10733,-0.10907,-0.10999,-0.10856,-0.10162,-0.092667,-0.083153,-0.072709,-0.062349,-0.051658,-0.040123,-0.028838,-0.019217,-0.0098194,-0.0001586,0.0096224,0.020024,0.030615,0.041051,0.051692,0.062883,0.07411,0.085355,0.09626,0.10606,0.11557,0.12476,0.13407,0.14482,0.15536,0.16453,0.1731,0.18167,0.18873,0.19469,0.19739,0.19251,0.18481,0.17624,0.16636,0.15672,0.14654,0.1351,0.12373,0.11391,0.10417,0.094165,0.083868,0.072496,0.060941,0.049517,0.038293,0.02786,0.017698,0.0074492,-0.0025157,-0.011898,-0.021151,-0.030124,-0.039371,-0.050166,-0.060987,-0.070878,-0.080398,-0.089805,-0.09817,-0.10584,-0.11124,-0.11133,-0.10947,-0.10697,-0.10359,-0.10048,-0.096972,-0.09258,-0.088138,-0.084473,-0.080789,-0.07698,-0.072939,-0.068066,-0.06312,-0.05825,-0.053754,-0.050526,-0.047649,-0.044695,-0.041872,-0.039052,-0.036208,-0.033503,-0.030553,-0.026707,-0.02271,-0.018937,-0.015222,-0.011626,-0.0083009,-0.0050972,-0.0025056,-0.0013909,-0.00079961,-0.00036964,-0.00015309,0.00021127,0.00048631,0.00053099,0.00055136,0.00070238,0.00084431,0.00099806,0.0010991,0.00096379,0.00085061,0.00077631,0.00091111,0.0016719,0.0026096,0.0035414,0.0045116,0.0053762,0.0062165,0.0070992,0.00791,0.0085283,0.0090763,0.0095746,0.010041,0.010566,0.011042,0.011453,0.011757,0.011826,0.011798,0.011736,0.011621,0.01149,0.011331,0.011123,0.010911,0.010752,0.010588,0.0104,0.010192,0.0099402,0.0096675,0.0093861,0.0090888,0.0087766,0.0084526,0.0081137,0.0077689,0.0074321,0.0070881,0.0067387,0.0063735,0.0059631,0.0055441,0.0051408,0.0047388,0.00433,0.0039408,0.0035634,0.0032393,0.0030501,0.0029069,0.0027756,0.0026618,0.0025323,0.002409,0.0023052,0.002202,0.0020858,0.001969,0.0018491,0.001733,0.0016391,0.0015416,0.0014399,0.0013156,0.0011252,0.00091656,0.00070812,0.00049746,0.0003033,0.00011305,-7.9767e-05,-0.00026609,-0.00044136,-0.0006084,-0.00076239,-0.00090965,-0.0010627,-0.001202,-0.0013282,-0.0014243,-0.0014524,-0.0014541,-0.0014466,-0.0014261,-0.0014057,-0.0013787,-0.0013391,-0.0012985,-0.0012699,-0.0012403,-0.0012069,-0.0011692,-0.0011198,-0.0010672,-0.0010139,-0.0009614,-0.0009163,-0.00087221,-0.0008256,-0.00077911,-0.00073352,-0.00068673,-0.00064016,-0.00058969,-0.00052684,-0.00046165,-0.00039994,-0.00033868,-0.00027727,-0.00022017,-0.00016526,-0.00012139,-0.00010512,-9.8283e-05,-9.3928e-05,-9.316e-05,-8.9222e-05,-8.6518e-05,-8.7732e-05,-8.8912e-05,-8.6988e-05,-8.4783e-05,-8.196e-05,-7.9773e-05,-8.1816e-05,-8.3107e-05,-8.335e-05,-7.9275e-05,-6.2844e-05,-4.2778e-05,-2.2569e-05,-1.5081e-06,1.7373e-05,3.5916e-05,5.5365e-05,7.3712e-05,8.9177e-05,0.00010343,0.00011638,0.00012869,0.0001423,0.00015458,0.00016534,0.0001729,0.00017306,0.0001704,0.00016688,0.00016197,0.00015705,0.00015149,0.00014465,0.00013787,0.00013281,0.0001278,0.00012237,0.00011655,0.00010956,0.00010221,9.4854e-05,8.7415e-05,8.0238e-05,7.3062e-05,6.5655e-05,5.8317e-05,5.136e-05,4.4371e-05,3.7448e-05,3.0178e-05,2.1552e-05,1.2787e-05,4.6582e-06,-3.287e-06,-1.127e-05,-1.8514e-05,-2.5293e-05,-3.0321e-05,-3.1109e-05,-3.0391e-05,-2.9241e-05,-2.746e-05,-2.6012e-05,-2.4318e-05,-2.1976e-05,-1.9646e-05,-1.7945e-05,-1.6281e-05,-1.4603e-05,-1.2792e-05,-1.0343e-05,-7.9116e-06,-5.5957e-06,-3.7076e-06,-3.112e-06,-2.898e-06,-2.6679e-06,-2.5684e-06,-2.389e-06,-2.1976e-06,-2.1413e-06,-1.9145e-06,-1.0748e-06,-1.0965e-07,7.7875e-07,1.6538e-06,2.3922e-06,3.0326e-06,3.6666e-06,4.1016e-06,4.0555e-06,3.8434e-06,3.5793e-06,3.2538e-06,2.9968e-06,2.717e-06,2.3672e-06,2.0089e-06,1.6752e-06,1.3403e-06,1.0216e-06,6.9338e-07,2.9695e-07,-7.8606e-08,-4.31e-07,-6.9232e-07,-7.0439e-07,-6.374e-07,-5.6132e-07,-4.5753e-07,-3.7776e-07,-2.9486e-07,-1.8291e-07,-8.8552e-08,-6.6214e-08,-5.9125e-08,-5.1747e-08,-4.2931e-08,-2.9939e-09,3.8084e-08,7.0794e-08,9.414e-08,8.9276e-08,7.573e-08,6.278e-08,4.6649e-08,3.114e-08,1.5858e-08,-1.9509e-09,-1.5548e-08,-1.492e-08,-1.0718e-08,-6.7052e-09,-2.2236e-09,-1.3474e-09,-9.0852e-10,8.7041e-10,2.125e-09,1.7769e-09,1.087e-09,3.5041e-10,-3.2866e-10,-2.5573e-10,-6.2067e-11,-1.4788e-11,4.5435e-11,2.5516e-11,-5.6556e-12,-2.1547e-12,8.5156e-13,6.9389e-18,2.0817e-17,1.3878e-17,1.3878e-17,-0,2.0817e-17,1.3878e-17,1.3878e-17,1.3878e-17,2.7756e-17,6.9389e-18,8.6736e-18,1.7347e-18,5.2042e-18,-2.6021e-18,3.4694e-18,-1.3878e-17,-3.4694e-18,-6.9389e-18,-1.3878e-17,-2.0817e-17,-1.3878e-17,-1.3878e-17,-6.9389e-18,-6.9389e-18,-0,6.9389e-18,1.3878e-17,-1.3878e-17,-0,-0,-2.7756e-17,-1.3878e-17,-2.7756e-17,-1.3878e-17,-0,-0,-1.3878e-17,-2.7756e-17,-0,-0,-0,1.0408e-17,1.2143e-17,6.9389e-18,1.0408e-17,1.3878e-17,-0,1.3878e-17,-0,3.4694e-18,-0,6.9389e-18,-0,6.9389e-18,6.9389e-18,-0,-0,-6.9389e-18,6.9389e-18,-6.9389e-18,-0,-1.3878e-17,6.9389e-18,-6.9389e-18,6.9389e-18,-1.3878e-17,6.9389e-18,-2.0817e-17,-6.9389e-18,-1.3878e-17,-0,-1.0408e-17,-1.0408e-17,-1.4745e-17,-1.3444e-17,-1.7781e-17,-5.2042e-18,-1.4745e-17,-3.9031e-18,-1.1059e-17,-2.3852e-18,-1.301e-17,-2.1684e-18,-7.5894e-18,2.6021e-18,-7.8063e-18,-0,-5.2042e-18,-9.541e-18,-4.7705e-18,-7.8063e-18,-2.6021e-18,1.7347e-18,-4.7705e-18,1.7347e-18,9.9747e-18,-2.6021e-18,4.3368e-18,-2.6021e-18,4.0658e-18,3.4694e-18,6.9389e-18,-0,5.2042e-18,1.7347e-18,5.2042e-18,-6.0715e-18,2.6021e-18,2.6021e-18,-5.2042e-18,-2.4286e-17,-3.4694e-18,-5.2042e-18,5.2042e-18,-1.3878e-17,-3.4694e-18,-1.7347e-17,-6.9389e-18,-1.7347e-17,-0,-3.4694e-18,3.4694e-18,-3.4694e-18,3.4694e-18,-6.9389e-18,-0,-1.0408e-17,-0,1.0408e-17,6.9389e-18,-3.4694e-18,6.9389e-18,6.9389e-18,6.9389e-18,-0,-8.6736e-18,8.6736e-18,5.2042e-18,1.301e-17,4.3368e-18,5.2042e-18,1.0408e-17,1.4311e-17,4.3368e-18,7.8063e-18,5.2042e-18,1.7347e-17,8.6736e-18,6.9389e-18,1.3878e-17,2.0817e-17,1.0408e-17,3.4694e-18,-3.4694e-18,1.3878e-17,6.9389e-18,-0,-0,6.9389e-18,2.0817e-17,-0,-2.7756e-17
